frame,x,y,mass,size,ecc,signal,raw_mass,ep,frame,particle
0,242.461330449,88.8193618172,773.857890858,1.74743882736,0.0964453664452,68.2200304002,1319.0,0.000430510429304,0,2.0
1,241.513562387,87.584689572,718.830823504,1.77076928757,0.125444593679,61.0941206233,1249.0,0.000327046822082,1,2.0
2,240.58374143,86.028403526,748.72959585,1.82538418534,0.123629013891,59.3997034905,1340.0,0.000166385037417,2,2.0
3,239.615206305,84.8567454798,780.016490364,1.78530030303,0.154905560294,64.7301584493,1384.0,0.000201273709933,3,2.0
4,238.656831593,83.7008624603,719.44838166,1.79485824354,0.192732673105,56.171185495,1288.0,0.000623902677429,4,2.0
5,237.778186838,82.6060745513,682.797449211,1.8245652074,0.211751205171,50.5892265637,1190.0,0.000621599457861,5,2.0
6,236.927705433,81.5087561742,741.846845621,1.81707216005,0.20498475215,57.9619897342,1287.0,0.000284259274659,6,2.0
7,235.831561038,79.9532113994,671.58199768,1.83588688283,0.244583842624,47.4192308017,1214.0,0.000511324204842,7,2.0
8,234.969522968,78.8078621908,658.239372252,1.84706815721,0.260366334468,45.0649746904,1200.0,0.000374088940687,8,2.0
9,233.296514482,76.2611683849,557.194589917,1.80682174301,0.215556759927,44.3129718049,953.0,0.000418332182165,9,2.0
10,232.23110285,74.5650557621,509.353337736,1.77078731991,0.149052183082,46.3909173775,896.0,0.000336901869664,10,2.0
11,231.251789976,73.3562052506,460.384754047,1.69531855766,0.208349505414,44.5001969902,803.0,0.000355177320988,11,2.0
12,230.276436782,72.1356321839,447.69947112,1.61903192304,0.221963267014,44.769947112,795.0,0.000340011086074,12,2.0
13,229.284320104,70.9531554977,444.61597243,1.62507194175,0.206877527938,42.2341782529,804.0,0.000206835528704,13,2.0
14,228.185871056,69.4492455418,455.397540254,1.56127695617,0.157843692556,47.7886307674,877.0,0.000362106883872,14,2.0
15,227.274920635,68.2368253968,417.55804475,1.54960312379,0.161360447697,44.2744085544,788.0,0.000329183212229,15,2.0
16,226.370512821,67.0948717949,432.925982122,1.56237820038,0.137601382656,44.9576981435,826.0,0.000486316182208,16,2.0
17,225.47690387,65.9744069913,442.680490115,1.63050661153,0.0924017259444,41.7258139871,836.0,0.000309477359125,17,2.0
18,224.675332527,64.9431680774,440.395338122,1.65511920685,0.157721735495,39.9391177257,813.0,0.000255488891783,18,2.0
19,223.756695157,63.8148148148,464.612064858,1.68485798771,0.191256117973,40.769377771,832.0,0.000299480430648,19,2.0
20,222.913580247,62.7037037037,435.375904226,1.71087746635,0.21920249566,36.8572194054,787.0,0.000421179416009,20,2.0
21,222.068351522,61.6932797243,464.510498463,1.71505480409,0.223696393441,40.5546213477,822.0,0.000384881107455,21,2.0
22,221.10483871,60.1801075269,439.234987605,1.77308127403,0.323905099691,36.6029156337,784.0,0.000264099590924,22,2.0
23,220.409033079,59.6558524173,417.513091445,1.78486712002,0.204220640197,36.1207254685,749.0,0.000301233874813,23,2.0
24,219.720653789,58.9435364042,408.57746994,1.79316847916,0.234213097109,36.1223766143,607.0,0.000590281282337,24,2.0
26,218.52780154,58.0316509837,367.355751888,1.67735381643,0.179098854262,39.9094786054,660.0,0.000550947464511,26,2.0
27,217.680157947,56.9713721619,370.47762002,1.61709768902,0.17926018948,42.0581700911,634.0,0.000437013218747,27,2.0
28,216.892166836,56.001017294,330.435375705,1.59825693457,0.179241513255,37.9849414595,553.0,0.000426929028349,28,2.0
30,215.47260834,54.1569910057,390.701679055,1.56828752349,0.134289537059,48.8776425964,601.0,0.000331863826718,30,2.0
31,214.662659123,53.3097595474,373.277739403,1.57934869214,0.0682475737256,44.61381751,624.0,0.000444851243328,31,2.0
32,213.904599659,52.3679727428,371.39927145,1.56026031987,0.0910692571779,47.4530585328,593.0,0.000513560861884,32,2.0
33,213.276079137,51.4244604317,367.974540523,1.56714238402,0.0995983497613,47.6513793484,542.0,0.000631359919915,33,2.0
34,212.499629904,50.5196150999,381.914189563,1.62352250203,0.129981861944,45.2303999482,523.0,0.000676560818147,34,2.0
35,211.855328158,49.9760056457,445.944251867,1.64554958933,0.244062063081,49.0947800221,748.0,0.000397730915148,35,2.0
36,211.127232143,49.0788690476,452.564852397,1.61397357918,0.200013795798,50.1727403327,723.0,0.000457346643256,36,2.0
37,210.382257012,48.1272015656,447.435126202,1.62759151577,0.140613491592,47.8665105657,684.0,0.000390733942471,37,2.0
38,209.703752469,47.3199473338,459.408428231,1.6520978345,0.154929582113,45.0637628746,746.0,0.000379613116347,38,2.0
39,208.995145631,46.3252427184,490.926836889,1.60270229498,0.170281533749,55.152668222,746.0,0.000326780971836,39,2.0
40,208.254226268,45.4154746424,450.650889883,1.63073535233,0.174428859249,48.932833947,641.0,0.00032044674882,40,2.0
41,207.706321839,44.9626436782,501.621119543,1.70361346865,0.217474316296,44.972927959,773.0,0.000294661209619,41,2.0
42,206.977245509,44.1143712575,514.787894791,1.63439820271,0.203979622713,53.3283268257,782.0,0.000246466562364,42,2.0
43,206.23943662,43.1672535211,514.668604451,1.65990412077,0.195472960931,50.4399395207,782.0,0.00023081001266,43,2.0
44,205.740182894,42.6637977407,515.564133598,1.73685797694,0.220800811464,44.6507937113,749.0,0.000204384154944,44,2.0
45,204.990947817,41.8280085197,549.227518472,1.67643569358,0.207844484131,52.641615189,800.0,0.000362454546073,45,2.0
46,204.301489471,40.8746789933,547.295387878,1.69821199667,0.174833322771,49.1919326546,805.0,0.000242945147453,46,2.0
47,203.757650543,40.1367226061,552.033665509,1.74850097976,0.170631243188,47.9555405378,786.0,0.000459039656687,47,2.0
48,203.172593646,39.6410621147,590.999139292,1.73751729049,0.13729910588,54.0838472657,811.0,0.000483502190745,48,2.0
49,202.431407146,38.7225408028,596.621387755,1.74625441999,0.106546904228,50.793086827,861.0,0.00019996479773,49,2.0
50,201.901385493,37.9555827221,587.086996361,1.77676298801,0.156899086433,50.4789552699,796.0,0.000252552064893,50,2.0
51,201.385842473,37.4925224327,517.301325445,1.79397462778,0.0371122833844,47.9651278827,736.0,0.000245973354901,51,2.0
52,200.938543247,36.7867981791,645.004347351,1.80855327455,0.161407421268,54.0766163751,826.0,0.000232585613377,52,2.0
53,200.22113943,35.9587706147,604.487917726,1.81716783774,0.140732641376,49.1656214942,768.0,0.000273433503646,53,2.0
54,200.077023499,35.5561357702,615.7916139,1.80138714562,0.261962860339,50.6460465741,847.0,0.000230074917517,54,2.0
55,199.185763889,34.6540798611,619.342472248,1.81823804364,0.216075960743,51.3430608505,822.0,0.000240302695119,55,2.0
56,198.960826986,34.0275661951,692.322956433,1.82315736921,0.299837597858,51.9807225178,993.0,0.000231696366564,56,2.0
57,198.167942177,33.4030612245,655.962542457,1.79958895533,0.219926139451,53.5479626496,905.0,0.000236357978066,57,2.0
58,197.35764902,32.5577323885,586.725455729,1.82097912822,0.257388601569,48.4250271923,815.0,0.000335175527606,58,2.0
59,197.048536495,31.8584660986,682.34405021,1.78701006287,0.309483172583,55.6190037222,932.0,0.000271080508012,59,2.0
60,196.580735412,31.1147082334,620.653509686,1.80105662211,0.304772190068,46.1397093532,904.0,0.000444979067915,60,2.0
61,195.876197777,30.5415868149,675.829464058,1.77013684174,0.292092169929,57.5063783139,946.0,0.00040094503586,61,2.0
62,195.537920829,29.7598964114,608.486215282,1.7745685672,0.307907444491,49.5253301377,864.0,0.000283115190195,62,2.0
63,194.707379135,29.0178117048,717.741369326,1.78795327948,0.244238342091,53.5718748945,1025.0,0.000212649571194,63,2.0
64,194.409774436,28.2468671679,597.962429733,1.79970293659,0.244996358525,48.9559883992,832.0,0.000251915745819,64,2.0
65,193.686131387,27.6974452555,655.60632827,1.78568925947,0.215430404958,50.4864727244,920.0,0.000260384443506,65,2.0
66,192.845954932,26.8644255634,688.330891358,1.83469014283,0.18348006403,47.2957317298,972.0,0.000201337753242,66,2.0
67,192.623127341,26.4269662921,570.484633712,1.8135207961,0.117873078925,45.4037395745,831.0,0.000230751858193,67,2.0
68,191.662698413,25.2867965368,691.480426435,1.92649934114,0.108985143218,44.9013263919,1105.0,0.000192189525902,68,2.0
69,191.461392705,24.8924680246,559.748105837,1.83290622761,0.0560924062911,41.629773859,853.0,0.000464618490059,69,2.0
70,190.189781022,23.9235497503,635.113432354,1.97904892621,0.0779631493003,33.6710156223,979.0,0.000286865180376,70,2.0
71,189.808677098,23.1330014225,647.615158664,1.98554520426,0.0852457941519,36.3880494555,1049.0,0.00037180068843,71,2.0
72,189.425694066,22.228089276,545.017891704,1.96955598786,0.0738167585505,35.3060038719,827.0,0.000248061918173,72,2.0
73,188.55637149,21.286825054,574.161826588,1.99361832829,0.133122777329,36.7066740108,891.0,0.000220250048889,73,2.0
74,187.345132743,20.7357200322,618.095100247,1.99708153919,0.0724790768176,41.7699021888,963.0,0.000460592070657,74,2.0
75,186.545837724,19.3719704953,533.435109642,1.90833124349,0.0530641694736,37.379804838,824.0,0.000516043554221,75,2.0
76,186.573747017,19.0453460621,558.082986796,1.92558455929,0.139314727706,37.2943284733,897.0,0.000618911453083,76,2.0
77,185.78574406,18.0875364735,607.811087901,1.838634069,0.12764521814,42.5645113661,919.0,0.000348866740879,77,2.0
78,185.033881897,17.3325266215,595.904515414,1.84870641046,0.116810682497,39.5154494733,872.0,0.000373361359927,78,2.0
79,184.828741221,16.5267423015,523.797341124,1.78140949057,0.195826593814,40.4662451544,701.0,0.000962616485045,79,2.0
80,183.889425186,16.0987275121,595.618392819,1.80402261257,0.117984972473,40.7707192978,901.0,0.000318838306073,80,2.0
81,183.640659341,15.2159340659,500.605087658,1.74705403528,0.244434557061,42.6339497731,718.0,0.000277467547097,81,2.0
82,182.926370757,14.5143603133,544.387636524,1.74511627389,0.175619550706,46.0526355702,682.0,0.000460519713935,82,2.0
83,182.427536232,14.0005175983,492.318621999,1.78372560071,0.226282334827,40.2620819233,754.0,0.000468301342447,83,2.0
84,181.823217726,13.2721579961,576.937014893,1.69266808348,0.216079161235,53.0804286342,742.0,0.000597445809009,84,2.0
85,181.174757282,12.5922330097,501.748264551,1.74635542819,0.138134134079,44.7554580637,648.0,0.000825558810499,85,2.0
86,180.719486081,12.0915417559,540.893924745,1.70980921084,0.188683033586,48.3561485185,712.0,0.000414716635551,86,2.0
87,180.085145766,11.390559926,541.012175927,1.70200089124,0.177729407124,51.3223026678,675.0,0.000660903427059,87,2.0
88,179.682840237,10.5792899408,487.774356825,1.6635671376,0.212275978494,47.6229401634,638.0,0.000842425906581,88,2.0
89,179.021772152,10.2273417722,569.331142811,1.70805982168,0.18933414234,53.0414836846,704.0,0.00115596549218,89,2.0
90,178.594444444,9.38388888889,512.150441251,1.64333671399,0.241632713847,54.3448523772,648.0,0.000798745532129,90,2.0
91,177.897089397,9.07016632017,572.726772855,1.7246832244,0.200428532541,50.6047564373,715.0,0.000885225904677,91,2.0
92,177.491545894,8.19565217391,508.666383217,1.63889912385,0.237138481715,54.3683271916,654.0,0.000861413554767,92,2.0
93,176.962729358,7.56880733945,498.915676926,1.64773266514,0.184464945652,50.0632129943,650.0,0.00123463680185,93,2.0
94,176.317335945,7.19686581783,564.215912136,1.70698857354,0.180529376084,55.2611079468,755.0,0.00109826798085,94,2.0
95,175.856787049,6.52926525529,470.4007146,1.63095827862,0.200861354117,49.5004487966,619.0,0.000875230359372,95,2.0
96,175.277654867,6.09015486726,565.071851683,1.7012814015,0.221494547639,55.3195341526,769.0,0.000710165884289,96,2.0
97,174.844032096,5.30240722166,542.92443376,1.65899269749,0.189478947551,52.8221364841,664.0,0.00179778824932,97,2.0
98,174.482555019,4.49812130972,525.419427318,1.64445750093,0.222653427436,56.6877643,682.0,0.00140371000733,98,2.0
99,173.75146886,4.22561692127,545.081966826,1.69207039826,0.19843900056,50.6010286478,661.0,0.00123736532723,99,2.0
100,173.166893424,3.99909297052,589.997812469,1.77434475786,0.244095391907,52.4442499973,747.0,0.000839530313497,100,2.0
102,172.117200217,2.96852957135,578.30555141,1.80852265817,0.265898133874,48.6366578777,741.0,0.000992467470323,102,2.0
104,170.592261905,3.71577380952,386.207104032,1.82207038179,0.290584904567,39.9425501938,633.0,0.000925928385938,104,2.0
107,169.134259259,2.56216931217,439.539000978,1.73719807243,0.257868928049,38.6631528638,633.0,0.00221385560563,107,2.0
109,168.089987326,2.1102661597,265.362403429,1.64574960481,0.195947320789,35.987043304,454.0,0.00301079046974,109,2.0
0,274.021636241,97.814739689,619.002607128,1.86965374832,0.17244486571,46.0380573253,1093.0,0.000519528911213,0,3.0
1,273.175605536,96.2698961938,500.885130784,1.83935260162,0.321640998334,38.9962472064,916.0,0.000445941962323,1,3.0
2,273.032520325,95.0115176152,541.197298469,1.80690485335,0.278715218458,43.633115527,932.0,0.000239223837259,2,3.0
3,272.968922652,93.8466850829,523.627203545,1.85990702554,0.195735346855,38.3318256739,910.0,0.000306114445943,3,3.0
4,272.00135318,92.6224627876,482.680303265,1.86666505574,0.209428995181,35.923432584,832.0,0.000965858926811,4,3.0
5,272.018506701,91.1844288449,492.3808573,1.82410996209,0.271814115289,37.3920370253,894.0,0.000827412902866,5,3.0
6,271.150830565,90.0631229236,501.337899713,1.84768868816,0.282130024648,37.3088669554,820.0,0.000446152320454,6,3.0
7,270.909517426,88.8331099196,426.201761182,1.83099615425,0.246960975825,34.2789620254,721.0,0.000860962486416,7,3.0
8,270.852982955,87.7386363636,409.364415252,1.83421552466,0.143200590161,31.9815949416,749.0,0.000599346596735,8,3.0
9,270.767123288,86.2521793275,439.300201967,1.96593023621,0.317712496825,31.4567392442,875.0,0.000455624161073,9,3.0
10,269.923512748,85.1473087819,445.605274401,1.86779778221,0.280185005309,34.7142919151,750.0,0.000402486444003,10,3.0
11,268.462348178,84.1894736842,339.245328907,1.83157196704,0.364698780134,26.9198722533,622.0,0.00045853442147,11,3.0
12,268.909820877,83.0185299568,416.566346978,1.84380839592,0.220790304258,31.9050197809,688.0,0.000392891429287,12,3.0
13,268.6863711,81.8275862069,352.337185699,1.82304172102,0.160878957867,28.6382441578,629.0,0.000264381685541,13,3.0
14,267.356498195,80.5848375451,346.077143074,1.74010871481,0.289369367594,29.9850232266,563.0,0.000564067409299,14,3.0
15,267.221774194,79.5169354839,328.744111422,1.72505259387,0.301173790861,28.63255164,533.0,0.000486676481987,15,3.0
16,267.002819549,78.4266917293,295.27772114,1.75710159497,0.327609143732,24.4214656582,497.0,0.000808252820935,16,3.0
17,266.317012448,77.3377593361,332.977522215,1.63950199908,0.343963152835,33.4359171685,564.0,0.000458731929661,17,3.0
18,266.171292625,76.3433782712,335.754849681,1.66195474563,0.337582260775,31.9512941806,555.0,0.000374258466235,18,3.0
19,265.426275992,75.1947069943,280.090920011,1.67800178221,0.442953275069,27.5325668064,514.0,0.000484765534182,19,3.0
20,265.768095573,74.5481377372,364.220994541,1.88215722289,0.319853513034,33.5298315424,737.0,0.000449753875656,20,3.0
21,265.67550702,73.6232449298,342.046214261,1.88577894953,0.340707648928,30.6827727302,677.0,0.000467316445012,21,3.0
22,264.840932118,72.4143870314,291.347401052,1.97168405023,0.304719061873,27.4521867253,645.0,0.000321014789353,22,3.0
23,264.709519935,71.5345809601,326.414497065,1.93528328663,0.3816161863,30.8088540761,681.0,0.000331313554818,23,3.0
24,264.690927218,70.6520438684,304.460031464,1.94310910169,0.386327815786,27.3194444982,599.0,0.000598165060229,24,3.0
25,263.213740458,68.9214830971,280.08208024,1.61035363267,0.428371928604,30.2378690772,503.0,0.000555348684475,25,3.0
26,263.14370664,67.9326065411,317.076093802,1.60986798393,0.37092453427,31.4247863035,528.0,0.000688688454461,26,3.0
27,262.994858612,66.9845758355,284.532663747,1.66392233356,0.39639244294,28.1606878001,496.0,0.000558604039518,27,3.0
28,262.18410596,65.9470198675,253.793192937,1.60173746722,0.438337229944,27.5642938025,465.0,0.000507726097316,28,3.0
29,262.074243813,64.9404216315,315.967449596,1.56964794899,0.386836774674,32.1470090789,532.0,0.000837668795239,29,3.0
30,261.887473461,63.9946921444,300.93293677,1.63331816796,0.432071730887,31.9461716316,541.0,0.000368669996584,30,3.0
31,261.132214061,63.0986358867,251.579692822,1.59221611319,0.445139584091,25.8707344141,463.0,0.000599543709569,31,3.0
32,260.97893681,62.0952858576,315.404662381,1.56887990377,0.420559381259,32.5844335259,538.0,0.000566063485949,32,3.0
33,260.886549708,61.0970760234,282.930064881,1.59897628069,0.45840862304,32.760323302,510.0,0.0006709754626,33,3.0
34,260.142857143,60.4114688129,280.993859678,1.73350228759,0.318638183523,28.5516899673,500.0,0.000707683285887,34,3.0
35,260.006666667,59.3628571429,330.445634764,1.60534820433,0.372116134912,33.9886938614,552.0,0.000538957467311,35,3.0
36,259.855769231,58.4194711538,280.159194341,1.66662660208,0.398732892652,30.6424118811,495.0,0.000668008975565,36,3.0
37,259.143600416,57.6649323621,280.486077156,1.66309016189,0.433697345306,31.2299794544,496.0,0.000538838646762,37,3.0
38,258.984541063,56.677294686,313.026809229,1.61155249659,0.399025875605,32.0587843269,526.0,0.000538390322701,38,3.0
39,258.901506373,55.7763615295,293.807115281,1.67387394916,0.439156251467,27.9167826803,514.0,0.000474280612289,39,3.0
40,258.287128713,55.0623762376,295.941091535,1.70932213998,0.466787558243,26.9570103181,508.0,0.000404344565005,40,3.0
41,258.002876318,54.1802492809,300.684383726,1.65157758918,0.426058169026,28.8287999737,502.0,0.000453734879763,41,3.0
42,257.989932886,53.2617449664,275.581064637,1.63127981214,0.426331844337,32.0586473403,476.0,0.000404911736543,42,3.0
43,257.674081238,52.3800773694,312.304775236,1.73093371567,0.448707147507,32.3178055612,532.0,0.000339274958037,43,3.0
44,256.975024015,51.674351585,288.70482145,1.67395141881,0.415786874079,30.2294193449,488.0,0.000313697437726,44,3.0
45,257.02661597,50.8041825095,307.660995438,1.68982641357,0.437659122532,29.8302486071,518.0,0.00055977958308,45,3.0
46,256.690128755,49.9965665236,327.477723101,1.7389750817,0.457401657755,29.7962563508,545.0,0.000358847481384,46,3.0
47,255.990108803,49.4213649852,275.47188343,1.73718282121,0.358747518972,31.607060809,482.0,0.000748565637522,47,3.0
48,256.09223301,48.3867313916,346.360804251,1.69713255218,0.396022676848,37.5504431793,573.0,0.000684334766164,48,3.0
49,255.868398994,47.5071248952,313.969702511,1.75632016435,0.418835259843,35.0024898859,558.0,0.00030854927532,49,3.0
50,255.233494364,46.9943639291,297.132049503,1.75811896259,0.458848712431,26.5552797865,500.0,0.000402065431903,50,3.0
51,255.041211102,46.1328847771,306.615790605,1.71742173807,0.426733172639,29.6558586372,500.0,0.000362074401349,51,3.0
52,254.929745889,45.2742899851,327.395985112,1.73743621577,0.444263906846,35.2354423439,548.0,0.000350578102588,52,3.0
53,254.332848837,44.6824127907,311.759885604,1.77821932097,0.47585140397,33.5323132771,535.0,0.000392519574972,53,3.0
54,253.988013699,43.9648972603,312.987208458,1.76170255447,0.441152138679,28.4046610415,501.0,0.000388971610355,54,3.0
55,254.441838649,42.8771106942,286.55341815,1.68260050674,0.318976776207,30.3757375712,434.0,0.000455140722729,55,3.0
56,253.766444937,42.2941611234,339.758055877,1.76815887559,0.449051875823,34.4027004103,578.0,0.000398055593393,56,3.0
57,253.127076412,41.7898671096,335.790349115,1.79237958723,0.462794163905,30.9574159068,557.0,0.000384031636828,57,3.0
58,253.033204633,40.9583011583,316.719243505,1.75552080075,0.439870056921,28.8593596398,504.0,0.000542004162427,58,3.0
59,252.876447876,40.1297297297,327.393681001,1.80817534258,0.478688840694,31.0960793538,541.0,0.000467004514792,59,3.0
60,252.852208835,39.3277108434,308.838377122,1.76717049723,0.439636772237,34.2326875846,514.0,0.000782617473648,60,3.0
61,252.003828484,38.9287901991,338.303288639,1.80266945157,0.461343509258,32.3797175191,545.0,0.000695958133834,61,3.0
62,252.10744382,38.0007022472,320.563955073,1.795359186,0.452121225431,31.0658889045,514.0,0.000475901868162,62,3.0
63,251.861136159,37.2623985573,337.563688966,1.78587787477,0.449992213123,35.6131213788,569.0,0.000383070583037,63,3.0
64,251.224944321,36.9072011878,336.447532519,1.84515658444,0.491970893121,33.4699104362,555.0,0.000377648215616,64,3.0
